Tiempo(ms),Costo
0.0658,990
0.1378,890
0.1455,860
0.1508,830
0.1551,800
0.1591,770
0.164,740
0.1714,720
0.1763,690
0.1857,670
0.1938,650
0.2142,620
0.238,610
0.2482,590
0.2562,570
0.2612,540
0.3035,530
0.3275,510
0.3336,480
0.4336,460
0.5244,450
0.5295,420
0.6148,400
0.7242,380
0.7301,350
0.9397,340
0.9981,330
1.0079,310
1.5894,280
1.7625,270
1.8069,260
1.8144,240
2.8623,220
3.0531,200
5.4591,190
6.9439,180
8.1043,170
