Tiempo(ms),Costo
0.0507,990
0.1308,890
0.1478,860
0.1595,830
0.1713,800
0.2007,770
0.213,740
0.2257,720
0.2353,690
0.2489,670
0.2615,650
0.2858,620
0.3076,610
0.3212,590
0.3332,570
0.3431,540
0.4202,530
0.4451,510
0.4564,480
0.55,460
0.6428,450
0.6676,420
0.7661,400
0.9456,380
0.9821,350
1.2124,340
1.2804,330
1.2964,310
2.0093,280
2.3467,270
2.4346,260
2.4552,240
3.7654,220
4.0155,200
6.719,190
8.2053,180
9.3447,170
