Tiempo(ms),Costo
0.063,990
0.1448,890
0.1584,860
0.1687,830
0.1788,800
0.1878,770
0.2305,740
0.2622,720
0.2779,690
0.3163,670
0.3384,650
0.3491,620
0.3807,610
0.3977,590
0.42,570
0.4369,540
0.537,530
0.5838,510
0.5999,480
0.7658,460
0.8962,450
0.9093,420
1.0182,400
1.1333,380
1.1442,350
1.3582,340
1.4212,330
1.4361,310
1.9827,280
2.1803,270
2.228,260
2.2397,240
3.7447,220
4.1437,200
7.1941,190
8.6711,180
9.8027,170
